Temps (s),Temp 1 (°C),Temp 2 (°C),Temp 3 (°C)
1.0,25.66,25.74,25.57
2.0,25.66,25.74,25.57
3.0,25.66,25.74,25.57
4.0,25.74,25.74,25.57
5.0,26.27,25.74,25.57
6.0,26.8,25.83,25.57
7.0,27.42,25.74,25.57
8.0,27.96,25.74,25.57
9.0,28.58,25.83,25.57
10.0,29.03,25.83,25.57
11.0,29.49,25.92,25.57
12.0,29.85,26.01,25.57
13.0,30.31,26.09,25.57
14.0,30.67,26.18,25.66
15.0,31.04,26.27,25.57
16.0,31.41,26.36,25.57
17.0,31.69,26.54,25.57
18.0,32.07,26.62,25.57
19.0,32.35,26.71,25.66
20.0,32.63,26.8,25.66
21.0,32.82,26.98,25.66
22.0,33.1,27.07,25.74
23.0,33.39,27.24,25.74
24.0,33.68,27.42,25.83
25.0,33.87,27.51,25.83
26.0,34.06,27.69,25.83
27.0,34.35,27.78,25.92
28.0,34.54,27.96,26.01
29.0,34.74,28.05,26.01
30.0,34.93,28.22,26.09
31.0,35.13,28.31,26.18
32.0,35.23,28.49,26.18
33.0,35.52,28.58,26.27
34.0,35.62,28.67,26.36
35.0,35.82,28.85,26.45
36.0,35.92,28.94,26.54
37.0,36.21,29.12,26.62
38.0,36.31,29.21,26.62
39.0,36.41,29.4,26.71
40.0,36.61,29.49,26.8
41.0,36.81,29.58,26.89
42.0,36.91,29.67,26.98
43.0,37.01,29.85,27.07
44.0,37.12,29.94,27.15
45.0,37.32,30.12,27.33
46.0,37.42,30.22,27.33
47.0,37.62,30.31,27.42
48.0,37.83,30.4,27.51
49.0,37.83,30.58,27.6
50.0,37.93,30.67,27.69
51.0,38.14,30.77,27.87
52.0,38.24,30.86,27.96
53.0,38.34,31.04,28.05
54.0,38.44,31.14,28.13
55.0,38.65,31.23,28.22
56.0,38.76,31.41,28.22
57.0,38.86,31.51,28.31
58.0,39.17,31.6,28.49
59.0,39.17,31.79,28.58
60.0,39.28,31.79,28.67
61.0,39.38,31.97,28.76
62.0,39.38,32.07,28.85
63.0,39.49,32.16,28.94
64.0,39.7,32.25,29.03
65.0,39.81,32.44,29.12
66.0,39.91,32.54,29.21
67.0,40.02,32.63,29.31
68.0,40.12,32.73,29.4
69.0,40.23,32.82,29.58
70.0,40.23,32.91,29.58
71.0,40.34,33.01,29.76
72.0,40.45,33.1,29.85
73.0,40.66,33.2,29.94
74.0,40.77,33.29,30.03
75.0,40.88,33.39,30.03
76.0,40.99,33.48,30.22
77.0,41.09,33.58,30.31
78.0,41.2,33.68,30.4
79.0,41.2,33.87,30.49
80.0,41.2,33.87,30.58
81.0,41.31,34.06,30.67
82.0,41.31,34.16,30.77
83.0,41.42,34.16,30.86
84.0,41.53,34.25,30.95
85.0,41.64,34.35,31.04
86.0,41.75,34.45,31.14
87.0,41.75,34.54,31.23
88.0,41.86,34.54,31.32
89.0,41.97,34.64,31.41
90.0,42.08,34.74,31.41
91.0,42.08,34.83,31.51
92.0,42.3,34.93,31.6
93.0,42.3,35.03,31.69
94.0,42.3,35.13,31.79
95.0,42.42,35.13,31.88
96.0,42.53,35.23,31.97
97.0,42.53,35.32,32.07
98.0,42.64,35.42,32.16
99.0,42.75,35.52,32.35
100.0,42.75,35.62,32.35
101.0,42.86,35.72,32.44
102.0,42.98,35.72,32.54
103.0,42.98,35.82,32.63
104.0,43.09,35.92,32.63
105.0,42.98,36.01,32.73
106.0,43.2,36.01,32.82
107.0,43.2,36.11,32.82
108.0,43.32,36.21,32.91
109.0,43.32,36.31,33.01
110.0,43.43,36.31,33.01
111.0,43.55,36.41,33.1
112.0,43.66,36.51,33.1
113.0,43.66,36.61,33.2
114.0,43.66,36.61,33.29
115.0,43.77,36.71,33.48
116.0,43.77,36.71,33.48
117.0,43.77,36.81,33.58
118.0,43.89,36.91,33.58
119.0,44.12,37.01,33.68
120.0,44.12,37.01,33.68
121.0,44.35,37.12,33.77
122.0,44.47,37.12,33.77
123.0,44.47,37.22,33.87
124.0,44.59,37.32,33.96
125.0,44.7,37.32,33.96
126.0,44.7,37.42,34.06
127.0,44.94,37.42,34.06
128.0,44.7,37.52,34.25
129.0,44.7,37.52,34.25
130.0,44.82,37.73,34.35
131.0,44.94,37.73,34.35
132.0,45.06,37.73,34.45
133.0,45.29,37.83,34.45
134.0,45.17,37.93,34.54
135.0,45.29,38.03,34.64
136.0,45.29,38.03,34.74
137.0,45.29,38.14,34.83
138.0,45.29,38.24,34.83
139.0,45.29,38.24,34.93
140.0,45.29,38.34,34.93
141.0,45.41,38.34,35.03
142.0,45.41,38.44,35.13
143.0,45.53,38.44,35.13
144.0,45.53,38.55,35.23
145.0,45.41,38.65,35.32
146.0,45.41,38.76,35.42
147.0,45.65,38.76,35.52
148.0,45.65,38.76,35.52
149.0,45.53,38.86,35.62
150.0,45.65,38.96,35.52
151.0,45.77,38.96,35.62
152.0,45.89,39.07,35.72
153.0,45.89,39.17,35.72
154.0,45.89,39.28,35.82
155.0,46.01,39.28,35.92
156.0,46.01,39.38,36.01
157.0,46.13,39.38,36.01
158.0,46.13,39.38,36.11
159.0,46.13,39.49,36.21
160.0,46.25,39.49,36.21
161.0,46.25,39.59,36.31
162.0,46.25,39.59,36.41
163.0,46.37,39.7,36.41
164.0,46.37,39.7,36.51
165.0,46.49,39.7,36.51
166.0,46.49,39.81,36.61
167.0,46.49,39.91,36.61
168.0,46.62,39.91,36.71
169.0,46.62,40.02,36.71
170.0,46.86,40.02,36.81
171.0,46.74,40.02,36.81
172.0,46.86,40.12,36.91
173.0,46.86,40.12,36.91
174.0,46.99,40.12,37.01
175.0,46.99,40.34,37.01
176.0,47.11,40.23,37.01
177.0,46.99,40.34,37.22
178.0,46.99,40.34,37.22
179.0,46.86,40.34,37.22
180.0,46.99,40.34,37.32
181.0,46.99,40.45,37.32
182.0,47.11,40.45,37.32
183.0,47.23,40.45,37.42
184.0,47.23,40.45,37.42
185.0,47.11,40.55,37.42
186.0,47.23,40.55,37.42
187.0,47.36,40.66,37.42
188.0,47.48,40.77,37.52
189.0,47.61,40.88,37.62
190.0,47.61,40.88,37.52
191.0,47.48,40.88,37.62
192.0,47.61,40.99,37.62
193.0,47.61,41.09,37.62
194.0,47.73,40.99,37.73
195.0,47.61,41.09,37.62
196.0,47.61,41.09,37.62
197.0,47.73,41.2,37.73
198.0,47.73,41.2,37.73
199.0,47.73,41.31,37.93
200.0,47.86,41.2,38.03
201.0,47.73,41.31,38.03
202.0,47.86,41.31,38.03
203.0,47.86,41.42,38.03
204.0,47.86,41.42,38.14
205.0,47.98,41.53,38.34
206.0,48.11,41.42,38.24
207.0,48.24,41.53,38.24
208.0,48.36,41.53,38.24
209.0,48.36,41.53,38.44
210.0,48.36,41.64,38.34
211.0,48.36,41.75,38.34
212.0,48.36,41.75,38.34
213.0,48.49,41.86,38.34
214.0,48.49,41.86,38.44
215.0,48.49,41.97,38.55
216.0,48.49,41.97,38.55
217.0,48.62,41.97,38.55
218.0,48.49,42.08,38.65
219.0,48.62,42.08,38.65
220.0,48.49,42.19,38.65
221.0,48.49,42.08,38.76
222.0,48.75,42.19,38.76
223.0,48.75,42.19,38.86
224.0,48.88,42.19,38.86
225.0,48.88,42.19,38.86
226.0,48.88,42.19,38.96
227.0,49.0,42.19,39.07
228.0,49.0,42.3,39.07
229.0,49.0,42.42,39.07
230.0,49.13,42.3,39.07
231.0,48.88,42.42,39.17
232.0,49.0,42.42,39.17
233.0,49.0,42.42,39.17
234.0,49.0,42.53,39.28
235.0,49.0,42.53,39.17
236.0,48.88,42.64,39.28
237.0,49.0,42.64,39.17
238.0,49.13,42.75,39.28
239.0,49.26,42.75,39.28
240.0,49.39,42.86,39.28
241.0,49.39,42.86,39.28
242.0,49.39,42.98,39.38
243.0,49.39,42.98,39.28
244.0,49.39,42.98,39.49
245.0,49.52,42.98,39.38
246.0,49.39,42.98,39.49
247.0,49.39,42.98,39.49
248.0,49.39,42.98,39.49
249.0,49.39,42.98,39.59
250.0,49.26,42.98,39.7
251.0,49.39,42.98,39.7
252.0,49.39,42.98,39.7
253.0,49.39,42.98,39.7
254.0,49.52,43.09,39.81
255.0,49.39,42.98,39.81
256.0,49.52,43.09,39.81
257.0,49.52,43.2,39.81
258.0,49.52,43.09,39.91
259.0,49.52,43.09,39.91
260.0,49.52,43.2,40.02
261.0,49.52,43.2,39.91
262.0,49.52,43.32,39.91
263.0,49.66,43.32,39.91
264.0,49.79,43.32,40.02
265.0,49.66,43.32,40.02
266.0,49.66,43.32,40.02
267.0,49.66,43.43,40.02
268.0,49.79,43.43,40.02
269.0,49.79,43.43,40.12
270.0,49.92,43.43,40.12
271.0,49.92,43.55,40.12
272.0,50.05,43.55,40.12
273.0,49.92,43.55,40.12
274.0,50.05,43.55,40.23
275.0,49.92,43.66,40.23
276.0,49.79,43.66,40.23
277.0,50.05,43.66,40.23
278.0,49.92,43.66,40.23
279.0,49.92,43.66,40.34
280.0,49.92,43.66,40.34
281.0,49.92,43.66,40.34
282.0,49.92,43.77,40.34
283.0,49.92,43.77,40.34
284.0,49.92,43.77,40.45
285.0,49.92,43.89,40.45
286.0,50.05,43.77,40.55
287.0,50.18,43.77,40.55
288.0,50.05,43.89,40.55
289.0,50.05,43.89,40.55
290.0,50.18,43.89,40.55
291.0,50.18,43.89,40.55
292.0,50.18,43.89,40.66
293.0,50.18,44.0,40.66
294.0,50.18,43.89,40.77
295.0,50.18,43.89,40.66
296.0,50.18,44.0,40.77
297.0,50.32,44.0,40.88
298.0,50.18,44.0,40.77
299.0,50.18,43.89,40.88
300.0,50.18,44.0,41.09
301.0,50.18,44.0,40.99
302.0,50.32,44.0,40.99
303.0,50.32,44.12,40.99
304.0,50.45,44.12,40.99
305.0,50.32,44.12,41.09
306.0,50.32,44.24,41.2
307.0,50.32,44.24,41.09
308.0,50.45,44.12,40.99
309.0,50.45,44.12,40.99
310.0,50.45,44.24,41.09
311.0,50.45,44.24,40.99
312.0,50.72,44.24,40.99
313.0,50.59,44.24,40.99
314.0,50.72,44.24,40.99
315.0,50.72,44.35,40.99
316.0,50.72,44.35,41.09
317.0,50.85,44.35,41.09
318.0,50.72,44.35,41.2
319.0,50.59,44.47,41.2
320.0,50.72,44.47,41.09
321.0,50.85,44.35,41.09
322.0,50.72,44.47,41.2
323.0,50.72,44.47,41.31
324.0,50.59,44.47,41.31
325.0,50.59,44.47,41.31
326.0,50.85,44.47,41.42
327.0,50.72,44.47,41.31
328.0,50.85,44.47,41.31
329.0,50.85,44.47,41.2
330.0,50.99,44.47,41.2
331.0,51.13,44.47,41.2
332.0,51.13,44.47,41.31
333.0,51.13,44.59,41.31
334.0,51.26,44.59,41.31
335.0,51.13,44.47,41.31
336.0,51.13,44.59,41.31
337.0,51.26,44.59,41.31
338.0,51.26,44.59,41.42
339.0,51.26,44.59,41.42
340.0,51.26,44.59,41.42
341.0,51.26,44.7,41.53
342.0,51.26,44.7,41.53
343.0,51.13,44.7,41.64
344.0,51.13,44.7,41.64
345.0,51.13,44.7,41.64
346.0,51.13,44.82,41.64
347.0,51.26,44.82,41.64
348.0,51.26,44.82,41.64
349.0,51.26,44.82,41.53
350.0,51.13,44.94,41.64
351.0,51.13,44.94,41.64
352.0,50.99,44.94,41.53
353.0,51.13,44.94,41.53
354.0,51.13,45.06,41.53
355.0,51.13,45.06,41.64
356.0,51.26,45.06,41.64
357.0,51.4,44.94,41.64
358.0,51.4,44.94,41.75
359.0,51.26,44.94,41.75
360.0,51.26,45.06,41.75
361.0,51.26,45.06,41.64
362.0,51.4,45.06,41.75
363.0,51.4,45.06,41.75
364.0,51.4,45.06,41.75
365.0,51.4,45.06,41.75
366.0,51.26,45.06,41.64
367.0,51.26,45.17,41.75
368.0,51.26,45.17,41.75
369.0,51.26,45.17,41.75
370.0,51.4,45.06,41.75
371.0,51.4,45.17,41.64
372.0,51.4,45.17,41.75
373.0,51.4,45.06,41.75
374.0,51.54,45.06,41.75
375.0,51.54,45.06,41.75
376.0,51.67,45.06,41.64
377.0,51.67,45.06,41.75
378.0,51.67,45.06,41.75
379.0,51.81,45.17,41.86
380.0,51.95,45.17,41.86
381.0,51.95,45.17,41.86
382.0,51.95,45.29,41.86
383.0,51.95,45.29,41.86
384.0,51.81,45.29,41.86
385.0,51.95,45.41,41.86
386.0,51.95,45.41,41.86
387.0,52.09,45.53,41.97
388.0,52.09,45.53,41.97
389.0,52.09,45.41,41.97
390.0,52.09,45.53,42.08
391.0,52.09,45.53,42.08
392.0,52.09,45.53,42.19
393.0,51.95,45.53,42.19
394.0,51.81,45.53,42.19
395.0,51.95,45.53,42.19
396.0,52.09,45.41,42.3
397.0,52.09,45.53,42.3
398.0,51.95,45.53,42.42
399.0,51.95,45.53,42.42
400.0,51.95,45.53,42.53
401.0,51.95,45.53,42.42
402.0,51.95,45.53,42.42
403.0,51.95,45.53,42.42
404.0,51.95,45.53,42.42
405.0,52.09,45.53,42.42
406.0,52.09,45.53,42.53
407.0,52.09,45.65,42.42
408.0,52.23,45.65,42.53
409.0,52.23,45.53,42.53
410.0,52.23,45.65,42.64
411.0,52.09,45.65,42.53
412.0,52.09,45.65,42.53
413.0,52.09,45.65,42.64
414.0,52.09,45.65,42.64
415.0,52.09,45.65,42.75
416.0,51.95,45.65,42.64
417.0,51.95,45.77,42.64
418.0,51.95,45.77,42.75
419.0,51.95,45.77,42.64
420.0,51.95,45.77,42.86
421.0,51.81,45.77,42.86
422.0,51.67,45.77,42.75
423.0,51.95,45.77,42.86
424.0,51.67,45.77,42.75
425.0,51.95,45.89,42.75
426.0,51.81,45.77,42.86
427.0,51.67,45.65,42.75
428.0,51.81,45.77,42.75
429.0,51.95,45.65,42.75
430.0,51.67,45.65,42.75
431.0,51.95,45.77,42.75
432.0,51.95,45.65,42.75
433.0,51.95,45.65,42.75
434.0,51.95,45.77,42.75
435.0,52.09,45.65,42.75
436.0,51.95,45.77,42.75
437.0,52.09,45.77,42.75
438.0,52.09,45.77,42.75
439.0,51.95,45.77,42.75
440.0,52.09,45.77,42.75
441.0,52.09,45.77,42.75
442.0,52.09,45.89,42.75
443.0,52.09,45.89,42.75
444.0,52.37,45.89,42.75
445.0,52.23,45.89,42.75
446.0,52.37,45.89,42.64
447.0,52.23,46.01,42.64
448.0,52.09,45.89,42.64
449.0,52.09,45.89,42.53
450.0,52.23,46.13,42.53
451.0,52.23,46.13,42.64
452.0,52.09,46.01,42.64
453.0,51.95,46.01,42.75
454.0,51.95,46.01,42.75
455.0,51.67,46.13,42.75
456.0,51.67,46.01,42.75
457.0,51.67,46.01,42.75
458.0,52.09,46.01,42.75
459.0,52.09,46.01,42.75
460.0,51.81,46.01,42.75
461.0,51.95,46.01,42.75
462.0,52.09,46.01,42.75
463.0,51.95,45.89,42.86
464.0,51.95,45.89,42.75
465.0,51.95,46.01,42.75
466.0,52.09,46.01,42.75
467.0,51.95,46.13,42.86
468.0,51.95,46.01,42.86
469.0,51.95,46.13,42.98
470.0,52.09,46.01,43.09
471.0,52.09,46.01,42.98
472.0,52.23,46.01,42.98
473.0,52.37,46.01,42.98
474.0,52.37,46.13,42.98
475.0,52.51,46.13,42.98
476.0,52.51,46.13,42.98
477.0,52.51,46.25,42.98
478.0,52.51,46.13,42.98
479.0,52.51,46.25,42.98
480.0,52.51,46.25,42.98
481.0,52.51,46.13,42.86
482.0,52.37,46.37,42.86
483.0,52.37,46.25,42.86
484.0,52.37,46.25,42.98
485.0,52.23,46.25,42.86
486.0,52.37,46.25,42.86
487.0,52.51,46.25,42.75
488.0,52.51,46.25,42.86
489.0,52.37,46.25,42.86
490.0,52.51,46.13,42.98
491.0,52.51,46.13,42.98
492.0,52.51,46.13,42.98
493.0,52.79,46.13,43.09
494.0,52.65,46.25,43.09
495.0,52.65,46.13,43.09
496.0,52.51,46.25,42.98
497.0,52.51,46.37,43.09
498.0,52.51,46.37,42.98
499.0,52.37,46.37,43.09
500.0,52.51,46.37,43.32
501.0,52.51,46.37,43.09
502.0,52.51,46.37,43.2
503.0,52.65,46.37,43.2
504.0,52.79,46.37,43.32
505.0,52.79,46.37,43.32
506.0,52.65,46.49,43.32
507.0,52.65,46.49,43.32
508.0,52.51,46.37,43.32
509.0,52.51,46.37,43.2
510.0,52.51,46.37,43.32
511.0,52.65,46.49,43.43
512.0,52.79,46.49,43.43
